03/12/2020 14:55
Laser wavelength: 720
N to average: 1
Int: 100.00 s
LambdaCenter: 741.0 nm
grating: 2 
Incident_Pol:  Circular
Detection_Pol:  Unpolarized

 -------------
Grating 0=300 gr 1000 nm/mirror
Grating 1=900 gr 600 nm/600 gr 1000 nm
Grating 2=1800 gr 500 nm
221.900035	0.030000
222.243415	-0.030000
222.586778	-0.010000
222.930124	-0.030000
223.273453	0.040000
223.616764	0.000000
223.960058	-0.120000
224.303335	0.190000
224.646595	0.050000
224.989837	0.020000
225.333063	0.020000
225.676270	0.020000
226.019461	-0.070000
226.362635	-0.120000
226.705791	-0.090000
227.048930	0.010000
227.392051	-0.100000
227.735156	-0.090000
228.078243	-0.010000
228.421313	-0.050000
228.764366	0.030000
229.107402	-0.010000
229.450420	0.020000
229.793421	-0.120000
230.136405	-0.140000
230.479372	0.170000
230.822321	-0.160000
231.165253	0.070000
231.508168	0.120000
231.851066	0.090000
232.193947	0.200000
232.536810	-0.100000
232.879656	0.090000
233.222485	0.020000
233.565297	0.000000
233.908091	0.050000
234.250869	0.100000
234.593629	0.070000
234.936372	0.030000
235.279097	0.010000
235.621806	0.100000
235.964497	0.070000
236.307171	-0.010000
236.649828	0.120000
236.992468	-0.120000
237.335090	0.020000
237.677696	-0.140000
238.020284	0.060000
238.362855	-0.020000
238.705408	-0.100000
239.047945	0.020000
239.390464	0.040000
239.732966	-0.100000
240.075451	0.040000
240.417919	-0.050000
240.760370	-0.170000
241.102803	-0.030000
241.445219	0.060000
241.787618	0.010000
242.130000	0.100000
242.472365	0.050000
242.814712	0.070000
243.157043	-0.040000
243.499356	0.030000
243.841652	0.060000
244.183931	0.080000
244.526192	0.070000
244.868437	0.110000
245.210664	0.020000
245.552874	-0.010000
245.895067	-0.010000
246.237243	0.040000
246.579402	0.000000
246.921543	-0.030000
247.263668	0.170000
247.605775	0.140000
247.947865	0.000000
248.289938	0.110000
248.631993	0.050000
248.974032	-0.160000
249.316053	-0.050000
249.658058	0.110000
250.000045	0.080000
250.342015	-0.070000
250.683968	-0.110000
251.025903	-0.010000
251.367822	0.000000
251.709723	-0.110000
252.051607	0.110000
252.393475	0.080000
252.735325	0.060000
253.077157	0.020000
253.418973	-0.070000
253.760772	0.100000
254.102553	0.070000
254.444317	0.120000
254.786064	0.130000
255.127794	0.040000
255.469507	-0.170000
255.811203	0.000000
256.152882	0.070000
256.494543	0.070000
256.836188	0.010000
257.177815	0.150000
257.519425	0.050000
257.861018	-0.010000
258.202594	-0.030000
258.544153	0.030000
258.885695	-0.090000
259.227219	0.060000
259.568727	0.130000
259.910217	0.010000
260.251690	0.090000
260.593146	-0.070000
260.934585	0.030000
261.276007	0.060000
261.617412	-0.010000
261.958800	-0.010000
262.300170	0.200000
262.641524	0.180000
262.982860	0.070000
263.324180	-0.090000
263.665482	0.190000
264.006767	-0.060000
264.348035	-0.140000
264.689286	0.010000
265.030520	0.120000
265.371736	0.140000
265.712936	0.010000
266.054118	-0.020000
266.395284	0.100000
266.736432	0.130000
267.077564	-0.090000
267.418678	-0.040000
267.759775	0.090000
268.100855	0.040000
268.441918	0.010000
268.782964	-0.130000
269.123993	0.090000
269.465004	-0.010000
269.805999	-0.030000
270.146977	0.090000
270.487937	-0.080000
270.828881	0.060000
271.169807	0.090000
271.510716	0.010000
271.851609	0.090000
272.192484	0.080000
272.533342	0.000000
272.874183	0.050000
273.215007	0.110000
273.555814	0.040000
273.896604	0.170000
274.237376	0.040000
274.578132	-0.030000
274.918871	0.060000
275.259593	-0.020000
275.600297	-0.050000
275.940985	0.020000
276.281655	0.030000
276.622309	0.100000
276.962945	0.060000
277.303564	-0.060000
277.644167	0.110000
277.984752	0.060000
278.325320	0.080000
278.665871	0.060000
279.006405	0.040000
279.346923	0.070000
279.687423	0.240000
280.027906	0.150000
280.368372	0.090000
280.708821	0.100000
281.049252	0.060000
281.389667	0.260000
281.730065	0.060000
282.070446	0.060000
282.410810	0.080000
282.751157	0.050000
283.091486	-0.100000
283.431799	0.120000
283.772095	0.130000
284.112373	0.070000
284.452635	0.040000
284.792880	-0.020000
285.133107	0.230000
285.473318	0.190000
285.813512	0.170000
286.153688	0.210000
286.493848	0.010000
286.833990	0.110000
287.174116	0.020000
287.514224	0.190000
287.854316	0.220000
288.194391	0.090000
288.534448	0.170000
288.874489	0.170000
289.214512	0.150000
289.554519	0.270000
289.894508	0.090000
290.234481	0.040000
290.574436	-0.050000
290.914375	0.050000
291.254296	0.090000
291.594201	0.200000
291.934088	0.050000
292.273959	0.060000
292.613813	0.300000
292.953649	0.060000
293.293469	0.470000
293.633271	0.270000
293.973057	0.270000
294.312826	0.500000
294.652577	0.530000
294.992312	0.540000
295.332030	0.670000
295.671731	0.480000
296.011414	0.640000
296.351081	0.360000
296.690731	0.420000
297.030364	0.180000
297.369980	0.440000
297.709578	0.210000
298.049160	0.150000
298.388725	0.190000
298.728273	0.310000
299.067804	0.220000
299.407318	0.180000
299.746816	0.170000
300.086296	0.320000
300.425759	0.130000
300.765205	0.060000
301.104634	0.130000
301.444047	0.070000
301.783442	0.350000
302.122820	0.220000
302.462182	0.060000
302.801526	0.230000
303.140854	-0.090000
303.480165	0.120000
303.819458	0.070000
304.158735	0.070000
304.497995	0.230000
304.837238	0.070000
305.176463	0.070000
305.515672	0.030000
305.854864	-0.020000
306.194039	0.000000
306.533198	0.040000
306.872339	0.040000
307.211463	0.280000
307.550570	0.120000
307.889661	0.030000
308.228734	0.100000
308.567791	0.130000
308.906830	0.190000
309.245853	0.100000
309.584859	0.210000
309.923848	0.130000
310.262820	-0.050000
310.601775	0.130000
310.940713	0.250000
311.279634	0.150000
311.618538	0.180000
311.957425	0.080000
312.296296	0.230000
312.635149	0.110000
312.973986	0.240000
313.312805	0.090000
313.651608	0.220000
313.990394	0.170000
314.329163	0.180000
314.667915	0.270000
315.006650	0.140000
315.345368	0.080000
315.684070	0.040000
316.022754	0.280000
316.361421	0.120000
316.700072	0.240000
317.038706	0.120000
317.377323	0.050000
317.715923	0.000000
318.054506	0.320000
318.393072	0.240000
318.731621	0.350000
319.070153	0.230000
319.408669	0.150000
319.747167	0.010000
320.085649	0.120000
320.424114	0.080000
320.762562	-0.010000
321.100993	0.200000
321.439407	0.260000
321.777804	0.080000
322.116185	0.110000
322.454548	0.090000
322.792895	0.150000
323.131225	0.080000
323.469538	0.210000
323.807834	0.060000
324.146113	0.240000
324.484375	0.060000
324.822620	0.050000
325.160849	0.200000
325.499061	0.170000
325.837256	0.250000
326.175433	0.210000
326.513595	0.290000
326.851739	0.160000
327.189866	0.110000
327.527977	0.180000
327.866070	0.090000
328.204147	0.250000
328.542207	-0.070000
328.880250	0.090000
329.218276	0.210000
329.556286	-0.030000
329.894278	0.150000
330.232254	0.200000
330.570213	0.320000
330.908155	0.210000
331.246080	0.120000
331.583988	0.290000
331.921880	0.170000
332.259755	0.260000
332.597612	0.240000
332.935453	0.200000
333.273277	0.200000
333.611085	0.200000
333.948875	0.110000
334.286649	0.090000
334.624406	0.150000
334.962145	0.130000
335.299869	0.110000
335.637575	0.380000
335.975264	0.140000
336.312937	0.240000
336.650593	0.060000
336.988232	0.280000
337.325854	0.110000
337.663459	0.180000
338.001048	0.230000
338.338620	0.240000
338.676174	0.280000
339.013713	0.210000
339.351234	0.310000
339.688738	0.150000
340.026226	0.160000
340.363697	0.260000
340.701151	0.330000
341.038588	0.240000
341.376008	0.130000
341.713412	-0.020000
342.050799	0.190000
342.388169	0.410000
342.725522	0.140000
343.062858	0.260000
343.400178	0.440000
343.737481	0.330000
344.074767	0.240000
344.412036	0.250000
344.749288	0.170000
345.086524	0.200000
345.423743	0.190000
345.760945	0.240000
346.098130	0.160000
346.435299	0.160000
346.772450	0.130000
347.109585	0.220000
347.446703	-0.080000
347.783805	0.220000
348.120889	0.210000
348.457957	0.230000
348.795008	0.110000
349.132042	0.390000
349.469059	0.250000
349.806060	0.180000
350.143044	0.150000
350.480011	0.260000
350.816961	0.240000
351.153895	0.310000
351.490812	0.140000
351.827712	0.190000
352.164595	0.210000
352.501461	0.220000
352.838311	0.210000
353.175144	0.210000
353.511960	0.150000
353.848760	0.320000
354.185542	0.160000
354.522308	0.230000
354.859058	0.090000
355.195790	0.230000
355.532506	0.330000
355.869204	0.230000
356.205887	0.430000
356.542552	0.240000
356.879201	0.220000
357.215833	0.310000
357.552448	0.370000
357.889046	0.330000
358.225628	0.240000
358.562193	0.330000
358.898741	0.290000
359.235272	0.110000
359.571787	0.390000
359.908285	0.340000
360.244766	0.390000
360.581231	0.480000
360.917679	0.280000
361.254110	0.340000
361.590524	0.300000
361.926921	0.350000
362.263302	0.260000
362.599666	0.360000
362.936014	0.520000
363.272344	0.460000
363.608658	0.530000
363.944955	0.360000
364.281236	0.290000
364.617500	0.370000
364.953747	0.390000
365.289977	0.390000
365.626191	0.330000
365.962388	0.330000
366.298568	0.410000
366.634731	0.230000
366.970878	0.330000
367.307008	0.270000
367.643121	0.460000
367.979218	0.280000
368.315298	0.310000
368.651361	0.310000
368.987408	0.440000
369.323437	0.350000
369.659451	0.400000
369.995447	0.290000
370.331427	0.370000
370.667390	0.320000
371.003336	0.300000
371.339266	0.340000
371.675179	0.290000
372.011075	0.280000
372.346954	0.380000
372.682817	0.230000
373.018663	0.180000
373.354493	0.240000
373.690306	0.280000
374.026102	0.180000
374.361881	0.300000
374.697644	0.490000
375.033390	0.260000
375.369119	0.360000
375.704832	0.400000
376.040528	0.280000
376.376207	0.190000
376.711870	0.180000
377.047516	0.240000
377.383145	0.160000
377.718758	0.320000
378.054354	0.270000
378.389933	0.220000
378.725496	0.520000
379.061042	0.360000
379.396571	0.280000
379.732084	0.330000
380.067580	0.300000
380.403059	0.270000
380.738521	0.220000
381.073967	0.290000
381.409397	0.290000
381.744809	0.380000
382.080205	0.380000
382.415585	0.460000
382.750948	0.340000
383.086294	0.550000
383.421623	0.410000
383.756936	0.250000
384.092232	0.370000
384.427511	0.340000
384.762774	0.490000
385.098020	0.570000
385.433250	0.650000
385.768463	0.790000
386.103659	0.600000
386.438839	0.740000
386.774002	0.550000
387.109148	0.490000
387.444278	0.400000
387.779391	0.270000
388.114487	0.250000
388.449567	0.260000
388.784630	0.250000
389.119676	0.280000
389.454706	0.190000
389.789720	0.430000
390.124716	0.120000
390.459696	0.260000
390.794660	0.190000
391.129607	0.280000
391.464537	0.190000
391.799450	0.200000
392.134347	0.180000
392.469227	0.230000
392.804091	0.350000
393.138938	0.410000
393.473769	0.250000
393.808582	0.280000
394.143380	0.280000
394.478160	0.180000
394.812924	0.330000
395.147672	0.330000
395.482403	0.330000
395.817117	0.220000
396.151814	0.360000
396.486495	0.370000
396.821160	0.220000
397.155807	0.410000
397.490439	0.410000
397.825053	0.040000
398.159651	0.120000
398.494233	0.260000
398.828797	0.050000
399.163346	0.170000
399.497877	0.360000
399.832392	0.310000
400.166891	0.240000
400.501373	0.330000
400.835838	0.330000
401.170287	0.200000
401.504719	0.200000
401.839134	0.420000
402.173533	0.180000
402.507915	0.270000
402.842281	0.240000
403.176630	0.050000
403.510963	0.290000
403.845279	0.190000
404.179579	0.250000
404.513861	0.340000
404.848128	0.300000
405.182378	0.150000
405.516611	0.320000
405.850827	0.230000
406.185027	0.360000
406.519211	0.330000
406.853378	0.260000
407.187528	0.180000
407.521662	0.110000
407.855779	0.230000
408.189880	0.220000
408.523964	0.140000
408.858032	0.180000
409.192083	0.160000
409.526117	0.340000
409.860135	0.220000
410.194136	0.300000
410.528121	0.360000
410.862089	0.320000
411.196041	0.250000
411.529976	0.310000
411.863895	0.340000
412.197797	0.230000
412.531682	0.240000
412.865551	0.280000
413.199404	0.300000
413.533240	0.240000
413.867059	0.260000
414.200862	0.180000
414.534648	0.190000
414.868418	0.280000
415.202171	0.200000
415.535908	0.210000
415.869628	0.230000
416.203331	0.330000
416.537018	0.400000
416.870689	0.480000
417.204343	0.090000
417.537981	0.270000
417.871602	0.240000
418.205206	0.300000
418.538794	0.470000
418.872365	0.240000
419.205920	0.260000
419.539459	0.290000
419.872981	0.280000
420.206486	0.300000
420.539975	0.250000
420.873447	0.280000
421.206903	0.240000
421.540342	0.250000
421.873765	0.150000
422.207171	0.320000
422.540561	0.220000
422.873934	0.320000
423.207291	0.290000
423.540631	0.260000
423.873955	0.160000
424.207262	0.210000
424.540553	0.180000
424.873828	0.480000
425.207085	0.380000
425.540327	0.310000
425.873551	0.570000
426.206760	0.300000
426.539951	0.210000
426.873127	0.190000
427.206286	0.410000
427.539428	0.430000
427.872554	0.350000
428.205663	0.240000
428.538756	0.410000
428.871832	0.340000
429.204892	0.270000
429.537936	0.410000
429.870963	0.450000
430.203973	0.390000
430.536967	0.260000
430.869945	0.190000
431.202906	0.340000
431.535850	0.440000
431.868778	0.220000
432.201690	0.500000
432.534585	0.290000
432.867464	0.430000
433.200326	0.260000
433.533172	0.250000
433.866001	0.340000
434.198814	0.360000
434.531610	0.350000
434.864390	0.270000
435.197154	0.350000
435.529901	0.280000
435.862631	0.270000
436.195345	0.300000
436.528043	0.230000
436.860724	0.370000
437.193389	0.280000
437.526037	0.320000
437.858669	0.270000
438.191284	0.290000
438.523883	0.360000
438.856465	0.400000
439.189032	0.260000
439.521581	0.420000
439.854114	0.340000
440.186631	0.290000
440.519131	0.210000
440.851615	0.360000
441.184082	0.230000
441.516533	0.320000
441.848968	0.180000
442.181386	0.230000
442.513787	0.280000
442.846173	0.360000
443.178541	0.270000
443.510894	0.380000
443.843230	0.370000
444.175549	0.200000
444.507852	0.160000
444.840139	0.260000
445.172409	0.120000
445.504663	0.410000
445.836900	0.250000
446.169121	0.420000
446.501326	0.510000
446.833514	0.280000
447.165685	0.340000
447.497841	0.230000
447.829980	0.400000
448.162102	0.580000
448.494208	0.190000
448.826298	0.370000
449.158371	0.510000
449.490428	0.110000
449.822468	0.260000
450.154492	0.300000
450.486500	0.410000
450.818491	0.300000
451.150466	0.270000
451.482424	0.100000
451.814366	0.360000
452.146292	0.360000
452.478201	0.320000
452.810094	0.340000
453.141970	0.350000
453.473830	0.330000
453.805674	0.420000
454.137501	0.390000
454.469312	0.300000
454.801106	0.370000
455.132884	0.220000
455.464646	0.270000
455.796391	0.320000
456.128120	0.460000
456.459833	0.350000
456.791529	0.620000
457.123209	0.420000
457.454872	0.420000
457.786519	0.280000
458.118150	0.320000
458.449764	0.270000
458.781362	0.440000
459.112943	0.380000
459.444509	0.480000
459.776057	0.400000
460.107590	0.420000
460.439106	0.370000
460.770605	0.420000
461.102089	0.370000
461.433556	0.350000
461.765006	0.420000
462.096441	0.460000
462.427858	0.310000
462.759260	0.230000
463.090645	0.370000
463.422014	0.250000
463.753366	0.330000
464.084702	0.300000
464.416022	0.410000
464.747325	0.410000
465.078612	0.290000
465.409883	0.510000
465.741137	0.550000
466.072375	0.470000
466.403597	0.330000
466.734802	0.470000
467.065991	0.440000
467.397164	0.370000
467.728320	0.480000
468.059460	0.360000
468.390584	0.460000
468.721691	0.350000
469.052782	0.350000
469.383856	0.520000
469.714915	0.400000
470.045956	0.380000
470.376982	0.320000
470.707991	0.550000
471.038984	0.480000
471.369961	0.490000
471.700921	0.560000
472.031865	0.460000
472.362793	0.480000
472.693704	0.360000
473.024599	0.360000
473.355478	0.390000
473.686340	0.400000
474.017186	0.390000
474.348016	0.310000
474.678829	0.310000
475.009626	0.350000
475.340407	0.340000
475.671171	0.280000
476.001919	0.430000
476.332651	0.370000
476.663367	0.400000
476.994066	0.320000
477.324749	0.390000
477.655415	0.420000
477.986066	0.330000
478.316700	0.430000
478.647317	0.510000
478.977919	0.630000
479.308504	0.360000
479.639073	0.420000
479.969625	0.620000
480.300161	0.490000
480.630681	0.460000
480.961185	0.490000
481.291672	0.480000
481.622143	0.410000
481.952598	0.490000
482.283036	0.530000
482.613459	0.480000
482.943864	0.530000
483.274254	0.530000
483.604627	0.300000
483.934984	0.460000
484.265325	0.540000
484.595650	0.500000
484.925958	0.530000
485.256250	0.430000
485.586525	0.360000
485.916785	0.460000
486.247028	0.510000
486.577255	0.460000
486.907465	0.630000
487.237659	0.430000
487.567837	0.460000
487.897999	0.350000
488.228145	0.200000
488.558274	0.470000
488.888387	0.330000
489.218483	0.430000
489.548564	0.320000
489.878628	0.410000
490.208676	0.450000
490.538708	0.400000
490.868723	0.550000
491.198722	0.560000
491.528705	0.390000
491.858672	0.400000
492.188622	0.460000
492.518556	0.460000
492.848474	0.460000
493.178376	0.390000
493.508261	0.420000
493.838130	0.460000
494.167983	0.430000
494.497820	0.530000
494.827640	0.390000
495.157444	0.450000
495.487232	0.500000
495.817004	0.640000
496.146759	0.220000
496.476499	0.490000
496.806222	0.410000
497.135928	0.320000
497.465619	0.300000
497.795293	0.380000
498.124951	0.570000
498.454593	0.370000
498.784219	0.580000
499.113828	0.420000
499.443421	0.360000
499.772998	0.580000
500.102559	0.310000
500.432103	0.430000
500.761631	0.310000
501.091143	0.510000
501.420639	0.520000
501.750119	0.530000
502.079582	0.350000
502.409029	0.480000
502.738460	0.410000
503.067875	0.540000
503.397274	0.330000
503.726656	0.440000
504.056022	0.620000
504.385372	0.320000
504.714706	0.370000
505.044023	0.590000
505.373324	0.440000
505.702609	0.390000
506.031878	0.270000
506.361131	0.450000
506.690368	0.430000
507.019588	0.420000
507.348792	0.390000
507.677980	0.610000
508.007152	0.600000
508.336307	0.350000
508.665446	0.270000
508.994569	0.390000
509.323676	0.520000
509.652767	0.380000
509.981842	0.370000
510.310900	0.500000
510.639942	0.390000
510.968968	0.500000
511.297978	0.480000
511.626972	0.460000
511.955949	0.330000
512.284910	0.460000
512.613856	0.350000
512.942785	0.350000
513.271697	0.430000
513.600594	0.400000
513.929474	0.480000
514.258338	0.380000
514.587187	0.430000
514.916018	0.460000
515.244834	0.560000
515.573634	0.620000
515.902417	0.470000
516.231184	0.620000
516.559935	0.560000
516.888670	0.270000
517.217389	0.410000
517.546092	0.430000
517.874778	0.430000
518.203448	0.360000
518.532102	0.570000
518.860740	0.520000
519.189362	0.430000
519.517968	0.430000
519.846557	0.340000
520.175131	0.550000
520.503688	0.500000
520.832229	0.410000
521.160754	0.500000
521.489263	0.510000
521.817755	0.790000
522.146232	0.420000
522.474692	0.460000
522.803136	0.490000
523.131564	0.500000
523.459976	0.490000
523.788372	0.730000
524.116752	0.430000
524.445115	0.310000
524.773463	0.310000
525.101794	0.590000
525.430109	0.490000
525.758408	0.470000
526.086691	0.620000
526.414957	0.420000
526.743208	0.520000
527.071443	0.540000
527.399661	0.500000
527.727863	0.470000
528.056049	0.410000
528.384219	0.520000
528.712373	0.530000
529.040511	0.420000
529.368632	0.470000
529.696738	0.540000
530.024827	0.490000
530.352901	0.510000
530.680958	0.370000
531.008999	0.300000
531.337024	0.410000
531.665033	0.430000
531.993025	0.550000
532.321002	0.320000
532.648963	0.260000
532.976907	0.580000
533.304835	0.280000
533.632748	0.470000
533.960644	0.390000
534.288524	0.620000
534.616388	0.510000
534.944235	0.590000
535.272067	0.630000
535.599883	0.610000
535.927682	0.580000
536.255466	0.410000
536.583233	0.280000
536.910984	0.580000
537.238720	0.440000
537.566439	0.550000
537.894142	0.460000
538.221829	0.430000
538.549499	0.460000
538.877154	0.390000
539.204793	0.420000
539.532415	0.520000
539.860022	0.450000
540.187612	0.650000
540.515187	0.610000
540.842745	0.500000
541.170287	0.390000
541.497813	0.300000
541.825323	0.690000
542.152817	0.490000
542.480295	0.470000
542.807757	0.510000
543.135203	0.400000
543.462633	0.510000
543.790046	0.590000
544.117444	0.610000
544.444826	0.480000
544.772191	0.450000
545.099540	0.550000
545.426874	0.590000
545.754191	0.590000
546.081492	0.470000
546.408778	0.500000
546.736047	0.510000
547.063300	0.370000
547.390537	0.440000
547.717758	0.240000
548.044963	0.580000
548.372152	0.510000
548.699324	0.550000
549.026481	0.570000
549.353622	0.480000
549.680747	0.520000
550.007855	0.610000
550.334948	0.440000
550.662024	0.580000
550.989085	0.380000
551.316130	0.440000
551.643158	0.560000
551.970170	0.350000
552.297167	0.210000
552.624147	0.450000
552.951111	0.530000
553.278060	0.370000
553.604992	0.450000
553.931908	0.480000
554.258808	0.520000
554.585693	0.440000
554.912561	0.520000
555.239413	0.530000
555.566249	0.440000
555.893069	0.570000
556.219873	0.380000
556.546661	0.560000
556.873433	0.430000
557.200189	0.360000
557.526929	0.390000
557.853653	0.590000
558.180361	0.560000
558.507053	0.500000
558.833729	0.730000
559.160389	0.440000
559.487033	0.430000
559.813661	0.490000
560.140273	0.530000
560.466869	0.530000
560.793449	0.580000
561.120013	0.650000
561.446561	0.450000
561.773093	0.440000
562.099609	0.630000
562.426109	0.450000
562.752592	0.480000
563.079060	0.480000
563.405512	0.560000
563.731948	0.420000
564.058368	0.440000
564.384772	0.440000
